@rep:1
@time:3.261
@trys:1185427
@seed:179424673
@dps-begin:
9570,6326,9976,2665,8415,2095
97,7828,9976,2665,4042
8609,97,978,2579,2665
978,1059,2579,2665
214,9368,2665,8415
214,9368,2665,8415
9570,2665,763,8415
5233,9570,5876,6326,7353,2665
97,9570,5876,2665,4042,8415
978,6326,9974,2665,2095,8415
978,6326,2665,7517,8415
9570,978,9976,2665,7372
97,8852,9976,2665,2095,8415
9570,5876,6326,9976,2665,7517,8415
8609,9570,5876,6326,9976,7353
5233,978,2579,9976,2665,8415
5876,6326,9976,2665,7372,8415
9570,5876,9974,9976,2665,2095,8415
9570,7828,5876,6326,9976,6632,2665,8415
9570,740,6326,9974,9976,8415,2095
@dps-end:
@rep:2
@time:2.26
@trys:871378
@seed:125164703
@dps-begin:
8609,9570,2579,6326,2665,8171,8415
9570,2665,763,8415
9570,4594,6326,2665,9675,8415
8609,2579,6326,2665,8415
2579,5701,2665,7199
8609,9368,8171,8415
8609,9570,7031,2665,2174
9570,2579,7880,8171,8415
9570,2579,1059,2665,8171
8609,6065,9570,2665,8171,8415
9570,2579,7031,2174,8415
8609,9570,2579,6326,2313,2665
8609,6065,9570,2579,8171,8415
5346,9570,1059,2665,8171
9570,2579,2313,2665,8415
8609,9570,2579,5876,8171,8415
9570,6326,7880,2665,8415
4594,2579,9675,2174
8609,2579,6326,9022
8609,7031,6073
@dps-end:
@rep:3
@time:3.27
@trys:1184768
@seed:132011827
@dps-begin:
8609,9570,978,2579,6326,2665,8415
8789,2665,9675,9548,7069,8415
6326,2665,9548,2095,8415
97,6065,8609,2579,2665
978,2579,1059,2665
8789,6326,2665,4204,9548,8415
6326,2665,7114,2603,4204,7199
8609,978,6962,9570,6326,3080
8609,6962,978,2579,8789,9548
978,6962,2579,8789,6326
978,6326,9368,8415
9570,7031,2665,2174,8415
8609,978,9570,6326,2603,9548
8609,978,9368,9548,8415
9570,978,2579,6326,7031,2174,8415
8609,6962,2579,6169
8609,6065,2579,9022
8609,6326,9368,5982
97,9572,1721,814
8609,9570,9368,2174
@dps-end:
@rep:4
@time:2.211
@trys:851423
@seed:124987441
@dps-begin:
8609,9570,2579,214,6326,2665,8415
8609,214,6326,9368
10069,2665,7114,5050,8415
9570,6326,2665,9675,6220,8415
8609,2579,6326,2665,8415
9570,6326,2665,9548,8415
2579,9974,9161,6169
8609,2579,2665,2174,8415
8609,9570,7031,2665,2174
8609,9570,1059,6326,214,2665,9548,8415
9570,2579,7031,9548,2174
9570,1059,2579,214,6326
8609,6004,6921,9867
8609,7031,9368,2174
8609,4181,6169
8609,9570,6004,7031,2174
6004,6326,2665,9675
1059,2579,6004,214,2665
8609,9570,2579,214,6326,5002
8609,9570,6326,7031,7372
@dps-end:
@rep:5
@time:2.09
@trys:811080
@seed:123979721
@dps-begin:
9570,6326,9976,2665,2095,8415
8609,9976,9368,2665
978,2579,1059,2665
9570,7031,9976,2665,8415,2095
8609,97,978,2579,2665
6326,2665,9675,2095,8415
8609,978,6326,4204,8415,2095
8609,978,9570,6326,2665,8415
8609,978,2579,8006
97,9570,978,2579,4042
8609,978,2579,6326,8415
978,2579,6326,2665
97,2665,8415,2095
9570,9976,2665,8415
6326,9976,2095,8415
9976,2665,2095,8415
8609,6169,2095,8415
978,9368,2665,5982
8609,97,978,2579,7031,8415
8609,6326,2665,4204,8415
@dps-end:
@rep:6
@time:2.62
@trys:962455
@seed:119777719
@dps-begin:
9570,6326,9976,2665,8415,2095
97,6326,2665,9548,8415,2095
6326,7880,9976,8415,2095
9570,6326,9976,2665,8415
8609,6065,97,2579,2665
978,6326,9368,8171
5363,6326,9976,7880,8415
978,2579,1059,2665
97,6326,7880,2665,8415,2095
8609,6326,9368,8171
8609,9570,2579,1059,6326
8609,978,9570,2579,8317,8415
8609,978,9570,2579,7880,8415
9570,978,2579,6326,7353,8415
5233,978,2579,6326,2665,8415
5233,6326,7880,9548,8415,2095
97,9570,8852,6326,9548,8415,2095
8609,9682,6326,9976,8317,8415
6326,2665,9675,2095,8415
9570,6326,2665,7353,8415
@dps-end:
@rep:7
@time:1.82
@trys:709233
@seed:117705823
@dps-begin:
8609,978,9570,2579,6326,2665,8415
8609,978,2579,2665,8415
7114,9675,7069,5086
8609,97,2579,2665
8609,6326,9368,8415
97,978,2579,2665
6326,6073,2665,2927,8415
8609,978,2579,6326,2665,6780
97,8609,978,2665,4042
2579,597,6326,9368,8171
8609,2579,6326,9974,8171,8415
978,9570,2579,1059
8609,9570,2579,2174,8415
978,2579,8006
9682,4042,9867,8317
7114,9675,5086
9974,9161,6169
1059,2579,5511,2665
97,8609,9368
978,9368,2665,5982
@dps-end:
@rep:8
@time:2.56
@trys:952815
@seed:112131119
@dps-begin:
9570,6326,9976,2665,2095,8415
8609,9368,9976,2665
8609,97,978,2579,2665
978,2579,1059,2665
978,9570,5876,7353,2665
6326,2665,9675,8415,2095
9570,5876,6326,2665,7353,4042
8609,9570,978,2579,7031,8415
978,2579,6326,9974,2665,9548
9570,8852,6326,9976,2665,4042
9570,5876,9976,2665,7353
8609,978,9570,6326,9976,8415
5876,6326,9976,7353,8415
8609,1059,2579,8006
8609,9976,9368,8415
97,5876,2665,7353
97,5876,6326,2665,4042,8415
9570,5876,6326,9976,8415
6326,2665,9548,8415
9976,2665,2095,8415
@dps-end:
@rep:9
@time:2.48
@trys:921661
@seed:108626351
@dps-begin:
9570,6326,9976,2665,8415,2095
214,6326,9368,8415
97,7880,2665,8415,2095
9570,9974,6326,9976,2665,5086,8415
6326,2665,9675,8415,2095
9570,9974,7880,2665,2095,8415
8609,9570,2579,6326,8415
7880,9976,2665,8415,2095
9570,6326,9976,7880,8415
4181,597,9161,6169
8609,2579,7031,2665,2174
8609,2579,1059,8171
9682,9976,9867,8317
9682,9976,9867,8317
8171,9867,8317,8415
9570,2579,7880,8171,8415
9570,2665,9675,2095,8415
9570,2579,1059,6326,8171
8609,9682,9976,8317,8415
8609,9570,7031,8171,2174,8415
@dps-end:
@rep:10
@time:2.861
@trys:1063605
@seed:107980007
@dps-begin:
9570,6326,9976,2665,2095,8415
97,2665,4042,9548,8415,2095
6326,2665,9675,9548,2095,8415
6326,2665,9548,7517,2095,8415
978,2579,1059,2665
10069,6326,7114,6780,9548
97,7880,2665,2095,8415
978,6326,9368,2665
9570,2579,6326,7880,8415
978,6326,2665,7517,8415
8609,978,6326,2665,6846,8415
8609,978,9570,2579,6326,7353,8415
97,2665,4042,9548
2579,6169,9161,6780,8415
8609,6326,9368,8415
97,2665,7353,2095,8415
97,978,2579,2665
8609,6326,2665,6846,8415
978,2579,6326,2665,8317,7517
8609,978,9548,7517,8317,8415,2095
@dps-end:
