@rep:1
@time:1.9
@trys:739650
@seed:179424673
@dps-begin:
978,9570,2579,6326,9976,2665,8415
1968,4196
2903,1706,3180
1136,7816
9151,1119
8514,7111
9808,7361,3027,51
2161,6227
7556,7336
343,5111
1832,2687
3737,9532
3028,1289
8115,1093,2236
1827,9078
4516,8197,7470
1013,4745,3039
5921,9607,9880
3414
6483,8036
@dps-end:
@rep:2
@time:1.61
@trys:658852
@seed:125164703
@dps-begin:
8609,9570,2579,6326,2665,8171,8415
6293,9368
5997,5855
5943
2673,4503
5252,7116,7262
5281,2539
1968,5457
2800,8256,7772
2019,6505
8514,5925
7505,401,3601
7489,4755
9959,4061
3794,2831
4771,1645
1288,6123
6921,3547
1520,3947
7472,9215
@dps-end:
@rep:3
@time:1.45
@trys:568378
@seed:132011827
@dps-begin:
978,2579,1059,2665,7820
6676,399
3554,6405
7492,5336
2976,5082
2227,4046
1857,9572
5474,6948
8082,6123
6480,4917,734
6264,1036
7712,3618
1409,8233
9681,3171,3640
2278,7671,4935,7576
3897,6189
9808,3429
5082,4174,6751
3953,1189
2791,5640
@dps-end:
@rep:4
@time:1.64
@trys:649121
@seed:124987441
@dps-begin:
8609,9570,2579,6326,214,2665,8415
549,1015
1886
1458,7705,223
4452,5918
8514,1923
8278,6454,1948
9264,7790
8291,9518
3601,6877
6325,8806
3696,5151
4145,2527
9082,5979
3684,1503
7458,6393
3875,6204
9264,4692,8894
193,9018,4044
8609,8514,5686,743,5065
@dps-end:
@rep:5
@time:1.87
@trys:740031
@seed:123979721
@dps-begin:
9570,6326,9976,2665,2095,8415
6293,9368,7017
1765,74,1247
5139,3335,9323
4674,6181
5361,6750
1685,2651
549,1950
9824,9201
9652,4023
5909,4454
3601
8850,9321
3751,106
8036,9368
4320,2262,329
5778,3678
2515,5559
7876,8430
5888,5714,8530,7741
@dps-end:
@rep:6
@time:1.88
@trys:719543
@seed:119777719
@dps-begin:
8609,978,9570,2579,6326,2665,8415
7281,710
1536,9923,9387
4992,6099,680,1647
245,7306
452,4876
425,8014
2916,3500
6624,10057
7368,9293
704,8752
3986,5091,7380
1923,7735
3075,2827,6541
4450,4132
8258,7401
8544,6275,8269
6993,5239
2364
1362,1832,4157
@dps-end:
@rep:7
@time:2.11
@trys:800072
@seed:117705823
@dps-begin:
8609,978,9570,2579,6326,2665,8415
8966,1453
3360,6387,9787
4,7044,10015
724,943,8735
5938,39
9856,8006,5855
5780,9302,249
4145
251,7391
1948,975
1840,9841,8557
1170,5246
9025,9343
4809,4796
4147,6526,7087
7281,3734
9937,2766
5659,7772
5897,8253
@dps-end:
@rep:8
@time:1.86
@trys:719759
@seed:112131119
@dps-begin:
9570,6326,9976,2665,2095,8415
9847,2731,9343
3141,6614,10015
7395,5082
8048,724
2725,6073
7772,2621
3158,8777
2808,7119
1225
9762,6245,9820,3981
1685,6742
280,8269
2227,3657
9444,4382
9762,1225
227,1685,8415
8723,910
4996,9671,7738
2546,1886
@dps-end:
@rep:9
@time:1.82
@trys:709425
@seed:108626351
@dps-begin:
9570,6326,9976,2665,8415,2095
5663,9807
9847,7772
1968,407
3684,3028,8972
2090,7772
9912,2479
6034,3994
4929,2599
4249
4261,8504
4987,9356
6641,7684
1334,377
9430,2215,8937
358,2126
1824,9135
2995,5240
7220,6743,6279
5828,4389,3446
@dps-end:
@rep:10
@time:1.59
@trys:628807
@seed:107980007
@dps-begin:
8609,978,2579,6326,2665,8415
1536,7395
7680,1507
277,8137,7580,6030
5733,6326,8089,9531
6326,5270,1339,7391
1094,249,1689
7093,7835
8773,3662
5808,4212
7841,4340
6247,28,1661
1120,8866
5185,489,383
2856,7945,7774
8473,4605,7391
7224,7407
179,2111
9099,5964
3911,4605
@dps-end:
